# Energy profile
1         0.00000   0.00000   -495.00165          0.00000             
2         0.45800   0.06880   -494.99375          4.95439             
3         0.90740   0.13630   -494.98254          11.99306            
4         1.35738   0.20390   -494.97307          17.93291            
5         1.80816   0.27161   -494.96571          22.55191            
6         2.25917   0.33936   -494.96143          25.23462            
7         2.70578   0.40645   -494.96389          23.69198            
8         3.14933   0.47308   -494.97524          16.56944            
9         3.46648   0.52072   -494.98969          7.50684             
10        3.89263   0.58473   -494.98880          8.06167             
11        4.33879   0.65175   -494.98846          8.27278             
12        4.81956   0.72397   -494.98748          8.89370             
13        5.30535   0.79694   -494.98578          9.95674             
14        5.75654   0.86472   -494.99847          1.99499             
15        6.19959   0.93127   -495.01019          -5.35695            
16        6.65712   1.00000   -495.01845          -10.54039           
