# Energy profile
1         0.00000   0.00000   -495.00165          0.00000             
2         0.45795   0.06889   -494.99373          4.97138             
3         0.90717   0.13646   -494.98253          11.99595            
4         1.35672   0.20408   -494.97305          17.94661            
5         1.80690   0.27180   -494.96569          22.56555            
6         2.25679   0.33948   -494.96146          25.21732            
7         2.70208   0.40646   -494.96395          23.65394            
8         3.14434   0.47299   -494.97533          16.51739            
9         3.46123   0.52065   -494.98976          7.46259             
10        3.88551   0.58448   -494.98889          8.00691             
11        4.33059   0.65143   -494.98853          8.23393             
12        4.81027   0.72358   -494.98754          8.85498             
13        5.29529   0.79654   -494.98585          9.91729             
14        5.74641   0.86440   -494.99850          1.97751             
15        6.18975   0.93109   -495.01019          -5.36097            
16        6.64785   1.00000   -495.01844          -10.53918           
